# Types,HPCS-330P
# version,2. 0.8
# Describe,
# Test date,2026-05-14
# Test time,09:02:40
# PAR(mW/cm2),59.510
# PPFD(umol/m2/s),2077.948
# PPFD-UV(umol/m2/s),85.030
# PPFD-B(umol/m2/s),570.731
# PPFD-G(umol/m2/s),732.687
# PPFD-R(umol/m2/s),774.530
# PPFD-FR(umol/m2/s),575.520
# PPFD-IR(umol/m2/s),149.131
# Kppfv(umol/s/klm),18.381
# Erb Ratio,0.942
# YPFD(umol/m2/s),1824.974
# Ech-A(mW/cm2),1.011
# Ech-B(mW/cm2),0.473
# DLI(mol/m2d),0.000
# CLI(mol/m2),0.000
# E(lx),113048.01
# Candle E(fc),10506.32
# CCT(K),5771
# Duv,0.00170
# CIE x,0.3265
# CIE y,0.3391
# CIE u,0.2035
# CIE v,0.3171
# CIE u',0.2035
# CIE v',0.4757
# SDCM,1.63
# Ra,95.5
# R1,94
# R2,95
# R3,96
# R4,97
# R5,97
# R6,96
# R7,95
# R8,94
# R9,94
# R10,92
# R11,98
# R12,96
# R13,93
# R14,97
# R15,94
# Ee(mW/cm2),58.568
# S/P,2.315
# Dominant(nm),503.20
# Purity(%),2.1
# Half width(nm),365.3
# Peak(nm),480.6
# Center(nm),579.9
# Centroid(nm),580.4
# R ratio(%),42.4
# G ratio(%),31.5
# B ratio(%),26.1
# Freq(Hz),0.00
# FlickPercentage(%),0.0
# FlickerIndex,0.000
# DutyCycle(%),0.0
# FlickCycle(ms),0.00
# Integral Time(ms),2.79
# Peak Signal,56809
# Dark Signal,2659
# Compensate level,2660
# Start wava(nm),350
# End wava(nm),800
# Wava(nm),[mW/m2/nm]
Wavelength (nm),Intensity
350,274.051483
351,286.269196
352,295.485748
353,303.797119
354,309.910645
355,313.832001
356,316.191986
357,318.163055
358,323.041565
359,330.59259
360,339.408661
361,350.533752
362,363.077881
363,377.18219
364,393.232147
365,411.144379
366,431.0578
367,450.267426
368,467.795685
369,481.067566
370,486.139374
371,486.39859
372,486.574585
373,488.409058
374,492.603577
375,503.498322
376,520.624695
377,542.433655
378,562.493164
379,574.489807
380,578.019958
381,574.712036
382,567.798767
383,560.965332
384,557.451477
385,560.370483
386,572.009399
387,591.30481
388,618.172302
389,646.152588
390,666.369263
391,680.429565
392,689.171631
393,696.790894
394,708.755127
395,730.494934
396,766.52887
397,820.664917
398,890.916748
399,984.594604
400,1042.450195
401,1102.644775
402,1151.588623
403,1192.418335
404,1215.296997
405,1223.587524
406,1230.990601
407,1240.134155
408,1248.187134
409,1259.736572
410,1269.328979
411,1278.572266
412,1288.12146
413,1297.811401
414,1307.848389
415,1321.611938
416,1332.574829
417,1339.809326
418,1345.968384
419,1346.120361
420,1342.990234
421,1339.931763
422,1333.770752
423,1328.253784
424,1327.553345
425,1319.544189
426,1305.960693
427,1288.190186
428,1262.47644
429,1241.888062
430,1232.944336
431,1235.465942
432,1247.703491
433,1276.279175
434,1305.996582
435,1331.729736
436,1359.885376
437,1382.727417
438,1399.208984
439,1414.478638
440,1430.242065
441,1446.239746
442,1460.758911
443,1476.241211
444,1495.656616
445,1516.031494
446,1534.235596
447,1555.904541
448,1578.322266
449,1596.659546
450,1612.615601
451,1627.005981
452,1631.962891
453,1636.931641
454,1645.857788
455,1650.55835
456,1653.12854
457,1662.238037
458,1667.158081
459,1670.248413
460,1674.112915
461,1676.418213
462,1674.179688
463,1673.4646
464,1671.182007
465,1666.724731
466,1663.797974
467,1663.842529
468,1662.955811
469,1665.127319
470,1667.997681
471,1670.002686
472,1672.914185
473,1676.244263
474,1677.268188
475,1678.86499
476,1682.184448
477,1683.11145
478,1684.904541
479,1690.522827
480,1699.375122
481,1700.868652
482,1698.767944
483,1689.82605
484,1673.986206
485,1651.503052
486,1635.865479
487,1631.130737
488,1634.071167
489,1643.054932
490,1652.98291
491,1664.229736
492,1675.485596
493,1688.063599
494,1700.306641
495,1706.626831
496,1707.26001
497,1703.768188
498,1691.227661
499,1671.664307
500,1655.84729
501,1642.304443
502,1634.103027
503,1632.785889
504,1637.809082
505,1644.312134
506,1653.99585
507,1658.178955
508,1659.698853
509,1661.345215
510,1659.844604
511,1655.320313
512,1650.223267
513,1642.331421
514,1626.923584
515,1608.369019
516,1588.243286
517,1568.501465
518,1553.961792
519,1545.600952
520,1545.095093
521,1552.57373
522,1563.907837
523,1573.579468
524,1585.352417
525,1595.519409
526,1599.845825
527,1602.5177
528,1608.874146
529,1618.951294
530,1629.865234
531,1642.171997
532,1651.349487
533,1657.268311
534,1656.862183
535,1656.123413
536,1651.583984
537,1644.950073
538,1640.659058
539,1635.086914
540,1624.37915
541,1617.04895
542,1612.563354
543,1608.644897
544,1605.851074
545,1607.300781
546,1608.867798
547,1611.468506
548,1614.17334
549,1615.86731
550,1617.764404
551,1617.354004
552,1618.260498
553,1617.916138
554,1617.043579
555,1615.456543
556,1612.389526
557,1606.17749
558,1601.545288
559,1600.84668
560,1596.019287
561,1594.555298
562,1593.992798
563,1593.222778
564,1588.56189
565,1588.642456
566,1587.713257
567,1586.324219
568,1580.220337
569,1572.317261
570,1565.652588
571,1559.623779
572,1553.237305
573,1552.307495
574,1557.022217
575,1558.540405
576,1558.046387
577,1559.063354
578,1559.004517
579,1557.792969
580,1560.356079
581,1565.245361
582,1571.608032
583,1580.603516
584,1586.687256
585,1586.294922
586,1582.230591
587,1574.073242
588,1559.825562
589,1546.014282
590,1534.877319
591,1526.458618
592,1521.440063
593,1518.057983
594,1517.530396
595,1518.941284
596,1519.382935
597,1515.445313
598,1515.050537
599,1514.309204
600,1513.98877
601,1513.920532
602,1517.234497
603,1517.771851
604,1518.852051
605,1518.396851
606,1517.877197
607,1516.742432
608,1516.003296
609,1514.61792
610,1513.379883
611,1509.996582
612,1505.811035
613,1502.992065
614,1499.004028
615,1493.337402
616,1489.602051
617,1487.662231
618,1485.956055
619,1487.386597
620,1489.912598
621,1493.091064
622,1494.002075
623,1490.959595
624,1484.438477
625,1477.009766
626,1467.522095
627,1459.442505
628,1452.132324
629,1448.50708
630,1444.839722
631,1440.827881
632,1438.638672
633,1437.855103
634,1438.787231
635,1441.31543
636,1444.364868
637,1445.900391
638,1447.590698
639,1449.984009
640,1452.194824
641,1451.182495
642,1448.766357
643,1444.854248
644,1440.840332
645,1437.765747
646,1437.371704
647,1437.237549
648,1439.4198
649,1440.832275
650,1439.374634
651,1435.038696
652,1430.634521
653,1424.337036
654,1416.212524
655,1406.154907
656,1398.258789
657,1390.959839
658,1387.061401
659,1387.403076
660,1392.817505
661,1398.802002
662,1409.039063
663,1418.800171
664,1428.074951
665,1436.255981
666,1440.888062
667,1442.140503
668,1440.78064
669,1435.977783
670,1431.249634
671,1429.661011
672,1428.022339
673,1427.747681
674,1426.951904
675,1424.668701
676,1421.44043
677,1419.735352
678,1415.944702
679,1414.105103
680,1412.496094
681,1412.867798
682,1408.109375
683,1399.66394
684,1386.472534
685,1368.582031
686,1342.932129
687,1323.520996
688,1307.187744
689,1288.263306
690,1274.661743
691,1270.417603
692,1272.400269
693,1277.430176
694,1284.297119
695,1292.22522
696,1299.11792
697,1303.060669
698,1306.918579
699,1310.418823
700,1312.16626
701,1312.094727
702,1310.813232
703,1309.582886
704,1313.077515
705,1319.267944
706,1324.589355
707,1329.452393
708,1329.89917
709,1327.696167
710,1323.307251
711,1320.238525
712,1317.406128
713,1312.837036
714,1302.68396
715,1284.742554
716,1262.814941
717,1238.739502
718,1221.550293
719,1203.73938
720,1187.152954
721,1175.770752
722,1167.811279
723,1160.138184
724,1153.442749
725,1149.239624
726,1145.524902
727,1140.344604
728,1136.537109
729,1136.487183
730,1141.731934
731,1149.663696
732,1162.334351
733,1178.062866
734,1192.189087
735,1201.926025
736,1210.808228
737,1217.575073
738,1221.637085
739,1225.715088
740,1230.636963
741,1233.660278
742,1237.894287
743,1244.086426
744,1250.559204
745,1252.396484
746,1254.322144
747,1254.278198
748,1250.855713
749,1247.580566
750,1247.22876
751,1246.351563
752,1244.63562
753,1244.053955
754,1242.95874
755,1233.859253
756,1211.328003
757,1173.379883
758,1118.259644
759,1049.562744
760,976.724792
761,910.870789
762,861.028259
763,833.767639
764,821.165344
765,823.553772
766,843.769104
767,870.514648
768,902.466797
769,937.950134
770,970.013367
771,997.967163
772,1026.401245
773,1049.019775
774,1067.92688
775,1087.845703
776,1104.748779
777,1117.610107
778,1131.131592
779,1140.445801
780,1146.877441
781,1152.251831
782,1155.276733
783,1155.082031
784,1153.984253
785,1152.852417
786,1149.750732
787,1145.297119
788,1141.921753
789,1138.857666
790,1132.038696
791,1122.995117
792,1117.657593
793,1112.126465
794,1106.609131
795,1106.359985
796,1107.537598
797,1107.607666
798,1107.005371
799,1104.690186
800,1100.944092
350,0
351,0
352,0
353,0
354,0
355,0
356,0
357,0
358,0
359,0
360,0
361,0
362,0
363,0
364,0
365,0
366,0
367,0
368,0
369,0
370,0
371,0
372,0
373,0
374,0
375,0
376,0
377,0
378,0
379,0
380,0
381,0
382,0
383,0
384,0
385,0
386,0
387,0
388,0
389,0
390,0
391,0
392,0
393,0
394,0
395,0
396,0
397,0
398,0
399,0
400,0