# status,normal
# exposure,automatic
# time,35
# ts,1781631369.7876
# name,
# y_axis,$W\cdot{}m^{-2}\cdot{}nm^{-1}$
# device,Y21B7W10034CCPD
# metrics.cct,5840
# metrics.duv,-0.00013
# metrics.ra,96
# metrics.r9,77.2
Wavelength (nm),Intensity
350,0.00015
351,0.00015
352,0.00017
353,0.00018
354,0.00019
355,0.00017
356,0.00013
357,0.00011
358,0.00009
359,0.00009
360,0.00007
361,0.00007
362,0.00008
363,0.0001
364,0.00011
365,0.00011
366,0.0001
367,0.00009
368,0.0001
369,0.00011
370,0.0001
371,0.00009
372,0.00008
373,0.00008
374,0.00009
375,0.00009
376,0.00008
377,0.0001
378,0.00012
379,0.00015
380,0.00016
381,0.00017
382,0.00016
383,0.00015
384,0.00013
385,0.00012
386,0.0001
387,0.00009
388,0.00009
389,0.0001
390,0.0001
391,0.00011
392,0.00012
393,0.00013
394,0.00012
395,0.00012
396,0.0001
397,0.00008
398,0.00007
399,0.00006
400,0.00006
401,0.00005
402,0.00005
403,0.00004
404,0.00003
405,0.00003
406,0.00003
407,0.00003
408,0.00002
409,0.00002
410,0.00003
411,0.00005
412,0.00008
413,0.00012
414,0.00019
415,0.00028
416,0.00038
417,0.00051
418,0.00067
419,0.00088
420,0.00111
421,0.00139
422,0.00171
423,0.00211
424,0.00256
425,0.00308
426,0.00369
427,0.00442
428,0.00526
429,0.00623
430,0.00732
431,0.00857
432,0.01
433,0.01156
434,0.01326
435,0.01521
436,0.01737
437,0.01981
438,0.02257
439,0.02574
440,0.02946
441,0.03376
442,0.03867
443,0.04427
444,0.05061
445,0.05763
446,0.06506
447,0.07285
448,0.08055
449,0.0879
450,0.0942
451,0.099
452,0.10192
453,0.10267
454,0.10124
455,0.0977
456,0.09251
457,0.08629
458,0.07958
459,0.07307
460,0.06702
461,0.06194
462,0.05787
463,0.0547
464,0.05228
465,0.05027
466,0.04863
467,0.04712
468,0.04553
469,0.04374
470,0.0418
471,0.0398
472,0.03775
473,0.03574
474,0.0339
475,0.03233
476,0.03111
477,0.03025
478,0.02974
479,0.02954
480,0.02959
481,0.02986
482,0.03028
483,0.03078
484,0.03131
485,0.03184
486,0.03239
487,0.03293
488,0.03344
489,0.03396
490,0.03449
491,0.03504
492,0.0356
493,0.03615
494,0.03673
495,0.03735
496,0.03799
497,0.03862
498,0.03925
499,0.03987
500,0.04046
501,0.04101
502,0.04151
503,0.04196
504,0.04236
505,0.04272
506,0.04304
507,0.04333
508,0.04354
509,0.0437
510,0.04384
511,0.04396
512,0.04404
513,0.04408
514,0.0441
515,0.04413
516,0.04415
517,0.04414
518,0.04413
519,0.04413
520,0.04414
521,0.04415
522,0.04422
523,0.04433
524,0.04445
525,0.04458
526,0.04472
527,0.04487
528,0.04503
529,0.04512
530,0.0452
531,0.04528
532,0.04536
533,0.04544
534,0.0455
535,0.04559
536,0.04569
537,0.04584
538,0.04596
539,0.04606
540,0.04619
541,0.04628
542,0.04636
543,0.04643
544,0.04647
545,0.04652
546,0.04656
547,0.04659
548,0.04659
549,0.04658
550,0.04656
551,0.0465
552,0.0464
553,0.04626
554,0.0461
555,0.04591
556,0.04569
557,0.04545
558,0.04518
559,0.04489
560,0.0446
561,0.04428
562,0.04395
563,0.04361
564,0.04326
565,0.04291
566,0.04255
567,0.04219
568,0.04184
569,0.04148
570,0.04115
571,0.04081
572,0.0405
573,0.0402
574,0.03992
575,0.03966
576,0.03943
577,0.03921
578,0.03901
579,0.03882
580,0.03868
581,0.03854
582,0.03841
583,0.03828
584,0.03815
585,0.03805
586,0.03794
587,0.03784
588,0.03776
589,0.0377
590,0.03766
591,0.03764
592,0.03764
593,0.03765
594,0.03769
595,0.03776
596,0.03783
597,0.03793
598,0.03805
599,0.0382
600,0.03835
601,0.03851
602,0.03867
603,0.03883
604,0.039
605,0.03915
606,0.0393
607,0.03948
608,0.03968
609,0.03987
610,0.04006
611,0.04027
612,0.04049
613,0.04072
614,0.04093
615,0.04115
616,0.04138
617,0.04162
618,0.04186
619,0.04206
620,0.04227
621,0.04248
622,0.04268
623,0.04288
624,0.04306
625,0.04321
626,0.04335
627,0.04349
628,0.0436
629,0.04369
630,0.04379
631,0.04387
632,0.04395
633,0.04402
634,0.04406
635,0.04409
636,0.04411
637,0.0441
638,0.04406
639,0.04399
640,0.04393
641,0.04384
642,0.04376
643,0.04365
644,0.04351
645,0.04337
646,0.04323
647,0.04305
648,0.04285
649,0.04262
650,0.04237
651,0.04211
652,0.04183
653,0.04153
654,0.04123
655,0.04092
656,0.04059
657,0.04025
658,0.03989
659,0.03952
660,0.03914
661,0.03875
662,0.03834
663,0.03793
664,0.0375
665,0.03708
666,0.03663
667,0.03618
668,0.03574
669,0.0353
670,0.03483
671,0.03432
672,0.03382
673,0.03331
674,0.03279
675,0.03227
676,0.03174
677,0.03124
678,0.03075
679,0.03022
680,0.02969
681,0.02915
682,0.02862
683,0.02807
684,0.02751
685,0.02695
686,0.0264
687,0.02586
688,0.02532
689,0.02478
690,0.02426
691,0.02374
692,0.02323
693,0.02272
694,0.02221
695,0.02169
696,0.02119
697,0.0207
698,0.02023
699,0.01976
700,0.01929
701,0.01883
702,0.01837
703,0.01791
704,0.01746
705,0.01702
706,0.01659
707,0.01617
708,0.01576
709,0.01534
710,0.01494
711,0.01455
712,0.01417
713,0.01381
714,0.01345
715,0.0131
716,0.01278
717,0.01244
718,0.0121
719,0.01176
720,0.01143
721,0.0111
722,0.01078
723,0.01047
724,0.01017
725,0.00989
726,0.00962
727,0.00934
728,0.00908
729,0.00882
730,0.00857
731,0.00831
732,0.00808
733,0.00785
734,0.00763
735,0.00741
736,0.00719
737,0.00697
738,0.00676
739,0.00655
740,0.00636
741,0.00617
742,0.00599
743,0.00583
744,0.00566
745,0.00548
746,0.0053
747,0.00513
748,0.00497
749,0.00479
750,0.00461
751,0.00445
752,0.00429
753,0.00415
754,0.00401
755,0.00388
756,0.00376
757,0.00364
758,0.00354
759,0.00343
760,0.00332
761,0.0032
762,0.00308
763,0.00297
764,0.00286
765,0.00274
766,0.00263
767,0.00253
768,0.00243
769,0.00234
770,0.00225
771,0.00217
772,0.0021
773,0.00204
774,0.00198
775,0.00192
776,0.00186
777,0.00181
778,0.00173
779,0.00165
780,0.00156
781,0.00147
782,0.0014
783,0.00133
784,0.00128
785,0.00123
786,0.00117
787,0.00112
788,0.00108
789,0.00103
790,0.00098
791,0.00093
792,0.00089
793,0.00085
794,0.00082
795,0.00078
796,0.00074
797,0.00071
798,0.00068
799,0.00065
800,0.00062
801,0.00057
802,0.00054
803,0.0005
804,0.00045
805,0.00041
806,0.00037
807,0.00035
808,0.00034
809,0.00032
810,0.00031
811,0.00029
812,0.00029
813,0.00028
814,0.00025
815,0.00023
816,0.00022
817,0.00022
818,0.0002
819,0.00019
820,0.00018
821,0.00017
822,0.00015
823,0.00011
824,0.00008
825,0.00006
826,0.00005
827,0.00003
828,0.00003
829,0.00003
830,0.00003
831,0.00003
832,0.00002
833,0.00001
834,0.00001
835,0
836,0
837,0
838,0
839,0
840,0
841,0
842,0
843,0
844,0
845,0
846,0
847,0
848,0
849,0
850,0