# status,normal
# exposure,automatic
# time,205.2
# ts,1782009045.2038
# name,
# y_axis,$W\cdot{}m^{-2}\cdot{}nm^{-1}$
# device,Y21B7W10034CCPD
# metrics.cct,2349
# metrics.duv,-0.00068
# metrics.ra,97.9
# metrics.r9,92.9
Wavelength (nm),Intensity
350,0.000961
351,0.000891
352,0.000837
353,0.000786
354,0.000742
355,0.000697
356,0.000646
357,0.000601
358,0.000561
359,0.000528
360,0.000497
361,0.000474
362,0.000456
363,0.000446
364,0.000438
365,0.000433
366,0.000427
367,0.000433
368,0.000444
369,0.000457
370,0.000469
371,0.00048
372,0.00049
373,0.000497
374,0.000501
375,0.000502
376,0.000504
377,0.00051
378,0.000519
379,0.000531
380,0.000544
381,0.000559
382,0.000573
383,0.000586
384,0.000595
385,0.000605
386,0.000618
387,0.00063
388,0.00064
389,0.000649
390,0.00066
391,0.000671
392,0.000681
393,0.000692
394,0.000704
395,0.000718
396,0.000728
397,0.00074
398,0.000756
399,0.000777
400,0.0008
401,0.000828
402,0.000864
403,0.000903
404,0.000946
405,0.000988
406,0.001027
407,0.00107
408,0.001114
409,0.001156
410,0.001197
411,0.001239
412,0.001282
413,0.001324
414,0.001368
415,0.001408
416,0.001447
417,0.00149
418,0.001535
419,0.001586
420,0.001635
421,0.001683
422,0.001731
423,0.00178
424,0.001825
425,0.001867
426,0.00191
427,0.001956
428,0.002006
429,0.002052
430,0.002098
431,0.002152
432,0.002205
433,0.002253
434,0.002292
435,0.002338
436,0.002382
437,0.002431
438,0.002483
439,0.002536
440,0.002599
441,0.002664
442,0.002723
443,0.002781
444,0.002833
445,0.00288
446,0.002916
447,0.002951
448,0.00298
449,0.003012
450,0.003045
451,0.003079
452,0.003116
453,0.003157
454,0.003201
455,0.003247
456,0.003294
457,0.003345
458,0.003396
459,0.003447
460,0.003494
461,0.003547
462,0.003605
463,0.003663
464,0.003717
465,0.003767
466,0.003823
467,0.003888
468,0.003952
469,0.004013
470,0.004074
471,0.004142
472,0.004214
473,0.004282
474,0.004348
475,0.00442
476,0.004496
477,0.004576
478,0.004649
479,0.004718
480,0.004792
481,0.004872
482,0.004955
483,0.005037
484,0.005123
485,0.005212
486,0.0053
487,0.005385
488,0.005468
489,0.005549
490,0.005634
491,0.005717
492,0.0058
493,0.005883
494,0.005973
495,0.006064
496,0.006159
497,0.006256
498,0.006357
499,0.006462
500,0.006569
501,0.006674
502,0.00678
503,0.006884
504,0.006989
505,0.007093
506,0.007205
507,0.007315
508,0.007423
509,0.007531
510,0.007637
511,0.007744
512,0.007845
513,0.007944
514,0.008048
515,0.008154
516,0.008262
517,0.008371
518,0.008488
519,0.008606
520,0.00872
521,0.008832
522,0.008946
523,0.009066
524,0.009184
525,0.009302
526,0.009425
527,0.009552
528,0.009686
529,0.009811
530,0.009941
531,0.010071
532,0.010201
533,0.010333
534,0.010466
535,0.010602
536,0.010742
537,0.010882
538,0.01102
539,0.01115
540,0.011279
541,0.011403
542,0.011527
543,0.011649
544,0.01177
545,0.011892
546,0.01202
547,0.012144
548,0.012273
549,0.012402
550,0.012533
551,0.012665
552,0.012787
553,0.012901
554,0.013014
555,0.01312
556,0.013227
557,0.013333
558,0.013448
559,0.013562
560,0.013676
561,0.013787
562,0.01389
563,0.013987
564,0.01408
565,0.01417
566,0.014265
567,0.014369
568,0.014485
569,0.014605
570,0.014733
571,0.014874
572,0.015017
573,0.015166
574,0.015315
575,0.015467
576,0.015627
577,0.015793
578,0.015962
579,0.016125
580,0.016297
581,0.016472
582,0.016646
583,0.016822
584,0.016995
585,0.017178
586,0.017364
587,0.017558
588,0.017751
589,0.017947
590,0.018147
591,0.018343
592,0.018535
593,0.018721
594,0.018907
595,0.019093
596,0.019283
597,0.019482
598,0.019677
599,0.019878
600,0.020079
601,0.020281
602,0.020479
603,0.020672
604,0.020864
605,0.021052
606,0.021243
607,0.02144
608,0.021638
609,0.021838
610,0.022033
611,0.022224
612,0.022417
613,0.022606
614,0.022791
615,0.022972
616,0.02316
617,0.023358
618,0.023556
619,0.023755
620,0.023961
621,0.02417
622,0.024385
623,0.024597
624,0.024807
625,0.025014
626,0.025218
627,0.025417
628,0.025615
629,0.025816
630,0.026022
631,0.026225
632,0.026442
633,0.026663
634,0.026885
635,0.027106
636,0.027323
637,0.027538
638,0.027755
639,0.02797
640,0.028183
641,0.028394
642,0.028612
643,0.02883
644,0.029053
645,0.029276
646,0.029499
647,0.029717
648,0.029934
649,0.030154
650,0.030368
651,0.030588
652,0.030813
653,0.031043
654,0.031283
655,0.031526
656,0.031771
657,0.032012
658,0.032255
659,0.0325
660,0.032737
661,0.032982
662,0.033228
663,0.033481
664,0.033738
665,0.034005
666,0.034272
667,0.034549
668,0.034825
669,0.035097
670,0.035364
671,0.035629
672,0.03589
673,0.036149
674,0.036408
675,0.03667
676,0.036926
677,0.037189
678,0.037442
679,0.037696
680,0.037947
681,0.038181
682,0.038417
683,0.038647
684,0.038876
685,0.039108
686,0.03934
687,0.039585
688,0.039832
689,0.040082
690,0.040329
691,0.040571
692,0.040817
693,0.041039
694,0.041261
695,0.041486
696,0.041706
697,0.041928
698,0.042155
699,0.04239
700,0.042625
701,0.042856
702,0.043079
703,0.043301
704,0.043534
705,0.043757
706,0.043981
707,0.044211
708,0.044449
709,0.044693
710,0.044935
711,0.045175
712,0.045415
713,0.045654
714,0.045893
715,0.046129
716,0.046375
717,0.046628
718,0.046888
719,0.047154
720,0.047418
721,0.047679
722,0.047929
723,0.048156
724,0.048376
725,0.04859
726,0.048797
727,0.049005
728,0.049214
729,0.049422
730,0.04964
731,0.049859
732,0.050071
733,0.050287
734,0.050504
735,0.050718
736,0.050934
737,0.051144
738,0.051347
739,0.051545
740,0.051745
741,0.051942
742,0.052134
743,0.052317
744,0.052492
745,0.052677
746,0.052868
747,0.053045
748,0.053211
749,0.053381
750,0.053564
751,0.053745
752,0.053911
753,0.054075
754,0.054263
755,0.054457
756,0.054648
757,0.054822
758,0.055001
759,0.055191
760,0.055373
761,0.055549
762,0.055715
763,0.05588
764,0.056045
765,0.056197
766,0.056337
767,0.056461
768,0.056579
769,0.056685
770,0.056773
771,0.056868
772,0.05696
773,0.057064
774,0.057174
775,0.057297
776,0.057417
777,0.057542
778,0.057662
779,0.057779
780,0.057897
781,0.058017
782,0.05811
783,0.058203
784,0.058299
785,0.058391
786,0.058476
787,0.058552
788,0.058624
789,0.0587
790,0.058782
791,0.058858
792,0.058938
793,0.059033
794,0.059128
795,0.059215
796,0.059297
797,0.059361
798,0.059419
799,0.059471
800,0.059515
801,0.059552
802,0.059596
803,0.05965
804,0.059701
805,0.059749
806,0.05978
807,0.05981
808,0.059835
809,0.059859
810,0.059874
811,0.059891
812,0.059902
813,0.059912
814,0.05992
815,0.059949
816,0.059991
817,0.060057
818,0.060121
819,0.060177
820,0.060224
821,0.060259
822,0.060273
823,0.060291
824,0.060302
825,0.060312
826,0.060328
827,0.060341
828,0.060367
829,0.060379
830,0.060381
831,0.060372
832,0.060354
833,0.060351
834,0.060316
835,0.060266
836,0.060223
837,0.060168
838,0.060121
839,0.06006
840,0.060006
841,0.059966
842,0.059937
843,0.059926
844,0.05992
845,0.05993
846,0.059927
847,0.059905
848,0.059871
849,0.059814
850,0.059757